Time,Force X,Force Y,Force Z,Torque X,Torque Y,Torque Z
127.562,0.10665524991970689,-0.08927672341441892,8.109031366524059,0.0012872469889307135,0.00153316695275615,-2.6621139103640575e-06
127.564,0.10665562718596791,-0.08927711653260086,8.1090315232684,0.0012872409271545012,0.00153316602796878,-2.659011767490447e-06
127.569,0.10665594985385411,-0.08927678698091254,8.109031354843914,0.0012872479285752833,0.0015331784809176569,-2.6575002730468757e-06
127.574,0.1066563270748179,-0.08927718008068472,8.10903151172602,0.0012872418681223786,0.0015331775548142299,-2.6544004683209585e-06
127.579,0.10665664973185608,-0.08927685051802256,8.109031343262405,0.0012872488725884088,0.0015331900070767646,-2.652891230205758e-06
127.584,0.10665702694218497,-0.08927724361972124,8.10903150009549,0.0012872428088970117,0.0015331890801059975,-2.6497937281336954e-06
127.589,0.10665734956610662,-0.08927691404924532,8.109031331661605,0.0012872498096225973,0.001533201531792137,-2.648286851022261e-06
127.594,0.10665772675485212,-0.08927730714254811,8.10903148848958,0.0012872437481257974,0.001533200604137059,-2.645191677001511e-06
127.599,0.10665804936063056,-0.08927697756000155,8.109031320108201,0.0012872507502050975,0.0015332130542855522,-2.64368712085043e-06
127.604,0.10665842656801489,-0.08927737064720287,8.10903147692346,0.0012872446886511156,0.0015332121262201974,-2.640594403719421e-06
127.609,0.10665874917030735,-0.08927704106118263,8.109031308425452,0.0012872516878274884,0.0015332245760309345,-2.6390921926691907e-06
127.614,0.10665912635434047,-0.08927743413771534,8.109031465284335,0.001287245629810931,0.0015332236467660246,-2.6360017681780246e-06
127.619,0.10665944891975505,-0.08927710454564315,8.109031296876957,0.001287252630020172,0.0015332360956482347,-2.634501809778388e-06
127.624,0.10665982609495125,-0.08927749761978959,8.109031453677911,0.0012872465694167565,0.0015332351654449101,-2.631413826979724e-06
127.629,0.10666014864595652,-0.08927716801444789,8.109031285220532,0.001287253567536919,0.001533247613814302,-2.6299161986150337e-06
127.634,0.10666052578224475,-0.08927756107449085,8.109031442056708,0.0012872475039434565,0.001533246682766195,-2.6268305435197067e-06
127.639,0.10666084830961034,-0.08927723145948098,8.109031273627973,0.001287254506355126,0.00153325912986765,-2.625335235535061e-06
127.644,0.10666122547120399,-0.08927762451646087,8.109031430475563,0.001287248444096018,0.0015332581987401363,-2.622251870530442e-06
127.649,0.10666154797971102,-0.0892772948904055,8.109031262036316,0.0012872554437406267,0.0015332706446396815,-2.6207588759572687e-06
127.654,0.1066619250993092,-0.08927768794414703,8.10903141885598,0.0012872493845272122,0.0015332697123183459,-2.6176778472004674e-06
127.659,0.10666224761859053,-0.0892773583098311,8.109031250413906,0.0012872563875620789,0.0015332821580277586,-2.616187233787628e-06
127.664,0.10666262470149739,-0.0892777513444909,8.109031407272468,0.0012872503252208966,0.0015332812247561892,-2.6131085805807256e-06
127.669,0.1066629471971696,-0.0892774217149051,8.109031238830706,0.0012872573231363289,0.0015332936697147648,-2.611620086331378e-06
127.674,0.10666332426720572,-0.0892778147539191,8.109031395681603,0.001287251259205677,0.0015332927351768071,-2.6085438031858846e-06
127.679,0.10666364675348831,-0.08927748510416215,8.109031227285605,0.001287258263716017,0.0015333051791893277,-2.6070577509353847e-06
127.684,0.1066640238317734,-0.08927787812933988,8.109031384042657,0.0012872521987362074,0.0015333042442503618,-2.603983807739545e-06
127.689,0.10666434630781424,-0.08927754847606179,8.109031215609766,0.0012872592001068497,0.0015333166878377564,-2.6025001143454025e-06
127.694,0.10666472332321787,-0.08927794149147547,8.10903137246569,0.0012872531377500762,0.001533315751822605,-2.599428340577376e-06
127.699,0.10666504576680863,-0.08927761183327415,8.109031204042667,0.0012872601390634911,0.001533328193738335,-2.597947019289459e-06
127.704,0.10666542280627986,-0.08927800484306295,8.109031360854056,0.0012872540762801957,0.0015333272576952316,-2.5948776097800258e-06
127.709,0.10666574524952195,-0.08927767517596037,8.109031192432115,0.0012872610745301007,0.0015333396993599086,-2.593398399332595e-06
127.714,0.10666612225927567,-0.0892780681748248,8.109031349265507,0.0012872550146123649,0.0015333387618056945,-2.5903315005675205e-06
127.719,0.10666644466348606,-0.08927773849847018,8.109031180830156,0.0012872620132759402,0.001533351202725908,-2.5888545167483736e-06
127.724,0.10666682165700857,-0.08927813149065753,8.109031337688627,0.001287255950307068,0.001533350264180784,-2.5857899316827847e-06
127.729,0.10666714406140519,-0.08927780180133967,8.109031169220765,0.0012872629509186968,0.0015333627045250068,-2.5843153433653565e-06
127.734,0.10666752102154788,-0.08927819479132777,8.109031326063139,0.0012872568872326381,0.0015333617651148233,-2.5812529888565967e-06
127.739,0.10666784341749719,-0.08927786509510396,8.109031157635151,0.0012872638896035634,0.0015333742043924267,-2.579780669451906e-06
127.744,0.10666822039030174,-0.0892782580854494,8.109031314431249,0.001287257822463984,0.0015333732650043815,-2.5767207456458677e-06
127.749,0.10666854276834283,-0.08927792837773496,8.109031145982836,0.0012872648239653924,0.0015333857031325164,-2.575250701000247e-06
127.754,0.10666891971056348,-0.08927832134519907,8.109031302831243,0.0012872587610415977,0.0015333847623451293,-2.5721930801511615e-06
127.759,0.10666924208795533,-0.08927799163175508,8.109031134381476,0.001287265761725646,0.0015333972000507498,-2.5707253671720875e-06
127.764,0.10666961900788736,-0.08927838460199418,8.109031291212293,0.001287259694405418,0.0015333962588021672,-2.5676699588325814e-06
127.769,0.10666994133295017,-0.08927805488565177,8.10903112283391,0.0012872666962565496,0.001533408695432261,-2.5662045035904307e-06
127.774,0.10667031826406488,-0.08927844784687462,8.109031279641476,0.0012872606312876076,0.0015334077533777283,-2.5631514504584635e-06
127.779,0.10667064057907248,-0.08927811811753765,8.109031111223025,0.0012872676318361627,0.0015334201893029888,-2.5616883518933328e-06
127.784,0.10667101747535879,-0.08927851106656264,8.109031268013137,0.0012872615710531321,0.001533419245837809,-2.558637620723894e-06
127.789,0.1066713397991496,-0.08927818133844495,8.109031099580426,0.0012872685684361892,0.0015334316812139588,-2.5571768169089134e-06
127.794,0.10667171666085076,-0.08927857427984717,8.109031256438897,0.00128726250485146,0.0015334307372274875,-2.5541282935250493e-06
127.799,0.10667203894117447,-0.08927824452591168,8.109031088036874,0.0012872695064328333,0.001533443171357037,-2.5526697368200444e-06
127.804,0.10667241583008179,-0.08927863746696686,8.109031244837075,0.0012872634435764432,0.0015334422269101516,-2.5496236863876165e-06
127.809,0.10667273808797104,-0.08927830771082937,8.109031076407527,0.0012872704421102606,0.0015334546600245123,-2.5481673277808612e-06
127.814,0.10667311496253734,-0.08927870064507881,8.109031233236657,0.0012872643781448154,0.001533453715112931,-2.545123499552057e-06
127.819,0.10667343717364124,-0.08927837088229627,8.109031064813946,0.0012872713766798579,0.001533466147479518,-2.543669370047408e-06
127.824,0.10667381403770372,-0.0892787638132517,8.109031221649584,0.0012872653102737565,0.0015334652013063196,-2.5406280142952605e-06
127.829,0.10667413628721858,-0.08927843404038678,8.109031053210167,0.0012872723127711932,0.0015334776332249008,-2.5391762365003813e-06
127.834,0.10667451310663556,-0.08927882695788611,8.10903121003197,0.0012872662500607683,0.001533476685954991,-2.5361369824504918e-06
127.839,0.10667483534739802,-0.08927849719174949,8.109031041592607,0.0012872732469348643,0.001533489117303597,-2.534687533825051e-06
127.844,0.106675212126172,-0.08927889008716268,8.109031198444761,0.0012872671825001662,0.001533488169126674,-2.5316505306029017e-06
127.849,0.10667553432583379,-0.08927856030204818,8.109031029982633,0.0012872741818040242,0.0015335005995657654,-2.530203318114765e-06
127.854,0.10667591112835062,-0.08927895320152797,8.109031186848492,0.0012872681196364518,0.0015334996508819464,-2.5271687595929595e-06
127.859,0.10667623331618459,-0.08927862340729656,8.109031018390063,0.0012872751165069328,0.0015335120805412305,-2.52572372906666e-06
127.864,0.10667661010656825,-0.08927901630333575,8.10903117521915,0.001287269051882584,0.001533511131094155,-2.52269148750417e-06
127.869,0.10667693227289402,-0.0892786865004832,8.109031006784088,0.0012872760531388967,0.0015335235595909263,-2.5212487470140294e-06
127.874,0.1066773089940762,-0.08927907937722233,8.109031163654377,0.0012872699873355323,0.001533522608814417,-2.5182187054039312e-06
127.879,0.10667763118373878,-0.0892787495782528,8.109030995215337,0.0012872769839216266,0.0015335350372875861,-2.5167783408586576e-06
127.884,0.10667800791315687,-0.0892791424519102,8.10903115202806,0.0012872709223286792,0.0015335340858634082,-2.5137505967445863e-06
127.889,0.1066783300862843,-0.08927881264666557,8.109030983569147,0.0012872779181293582,0.001533546513685007,-2.5123123076061956e-06
127.894,0.10667870679086376,-0.08927920551084925,8.109031140440257,0.0012872718549316218,0.001533545561066825,-2.5092870092188357e-06
127.899,0.10667902892880965,-0.08927887568749919,8.109030972003652,0.0012872788522060397,0.0015335579876197681,-2.507851026181056e-06
127.904,0.10667940564488848,-0.08927926855515791,8.109031128831715,0.0012872727843345098,0.0015335570352667757,-2.504827706355474e-06
127.909,0.10667972775516774,-0.08927893871705145,8.109030960397032,0.0012872797874016154,0.0015335694606738893,-2.5033941923678526e-06
127.914,0.10668010444486284,-0.08927933157650932,8.109031117236853,0.001287273722426658,0.0015335685070926711,-2.500373270159677e-06
127.919,0.1066804265735111,-0.08927900174184036,8.109030948767808,0.0012872807189983869,0.0015335809320014277,-2.49894188552883e-06
127.924,0.10668080322743952,-0.08927939457565968,8.109031105635232,0.001287274657988598,0.0015335799775081692,-2.495923299869237e-06
127.929,0.10668112530389581,-0.08927906473537447,8.10903093717018,0.0012872816504529755,0.0015335924017017988,-2.494493988462643e-06
127.934,0.10668150196188664,-0.08927945756480406,8.109031094015771,0.0012872755903811115,0.0015335914461632664,-2.491477735762312e-06
127.939,0.10668182401889506,-0.08927912771881824,8.109030925633505,0.001287282583449406,0.0015336038694471776,-2.4900507920558867e-06
127.944,0.10668220069008975,-0.0892795205578517,8.10903108241773,0.001287276520727682,0.0015336029134071553,-2.487036862332303e-06
127.949,0.10668252275845198,-0.08927919069141646,8.109030913955225,0.001287283517438568,0.001533615336534944,-2.4856121211758027e-06
127.954,0.10668289935854053,-0.08927958350894506,8.109031070785116,0.0012872774535645465,0.001533614379576236,-2.4826003156986067e-06
127.959,0.10668322140320977,-0.08927925364082952,8.109030902364683,0.0012872844496165333,0.0015336268011232504,-2.4811778555052313e-06
127.964,0.10668359799445065,-0.08927964644717944,8.109031059223193,0.0012872783865068881,0.001533625843506754,-2.4781682923768107e-06
127.969,0.1066839200226709,-0.08927931657065877,8.109030890810262,0.0012872853836612091,0.0015336382640566983,-2.476748216852618e-06
127.974,0.10668429663985743,-0.08927970938798457,8.109031047627061,0.0012872793179171584,0.0015336373058460772,-2.4737410393206892e-06
127.979,0.10668461862037866,-0.08927937950175041,8.109030879187882,0.0012872863164151503,0.001533649725788021,-2.472323017827656e-06
127.984,0.10668499520047676,-0.08927977230593515,8.10903103606242,0.0012872802486395582,0.0015336487667850654,-2.4693179443136064e-06
127.989,0.10668531721586881,-0.08927944241166468,8.109030867579568,0.0012872872504451898,0.0015336611863593086,-2.467902349895978e-06
127.994,0.10668569376610074,-0.08927983520573005,8.109031024414154,0.0012872811807924536,0.001533660226123529,-2.464899627165363e-06
127.999,0.1066860157305572,-0.0892795053081183,8.109030855993524,0.0012872881785155274,0.0015336726443409426,-2.463486128301209e-06
128.004,0.10668639227025793,-0.0892798980938431,8.10903101284226,0.0012872821146100984,0.0015336716834587927,-2.460485710040329e-06
128.009,0.10668671424560032,-0.08927956819081877,8.10903084439858,0.0012872891101941245,0.0015336841014115304,-2.4590744386163568e-06
128.014,0.10668709077796797,-0.08927996096928494,8.109031001235806,0.0012872830398770515,0.0015336831401317952,-2.456076154931436e-06
128.019,0.10668741271273645,-0.08927963105039914,8.109030832843075,0.0012872900419441656,0.0015336955568480116,-2.4546671345356806e-06
128.024,0.1066877892315326,-0.08928002382226333,8.109030989616542,0.0012872839736798325,0.0015336945945410442,-2.4516713055386818e-06
128.029,0.10668811116799774,-0.08927969389478049,8.109030821166277,0.0012872909742954266,0.0015337070105595832,-2.4502645526208584e-06
128.034,0.10668848766928432,-0.08928008665833606,8.109030978033458,0.0012872849086745946,0.0015337060475825977,-2.4472708390646837e-06
128.039,0.106688809590591,-0.089279756730307,8.109030809617153,0.0012872919067352,0.0015337184628937408,-2.4458661877388986e-06
128.044,0.10668918606094001,-0.08928014948917086,8.10903096646331,0.001287285835460786,0.0015337174992668524,-2.4428747876115824e-06
128.049,0.10668950795705141,-0.08927981955152835,8.109030797979097,0.0012872928343374635,0.0015337299134187653,-2.4414724137828753e-06
128.054,0.10668988441145964,-0.0892802123006323,8.10903095483521,0.001287286767372004,0.0015337289489903427,-2.438483237588371e-06
128.059,0.10669020630220334,-0.08927988235317857,8.109030786402982,0.0012872937644324667,0.001533741362438499,-2.437083179397182e-06
128.064,0.10669058275094397,-0.08928027509334434,8.109030943253751,0.0012872876985183365,0.0015337403970673632,-2.434096274484978e-06
128.069,0.10669090461379774,-0.08927994514169227,8.10903077480266,0.0012872946935657105,0.001533752810018857,-2.4326982313926926e-06
128.074,0.10669128106902058,-0.0892803378801189,8.109030931627547,0.0012872886245718035,0.0015337518442222543,-2.4297136922364174e-06
128.079,0.10669160291076457,-0.08928000790712598,8.109030763219552,0.0012872956260568493,0.0015337642558358477,-2.4283179860825424e-06
128.084,0.10669197932391497,-0.08928040063583767,8.109030920032469,0.0012872895596644273,0.0015337632889681294,-2.42533559010368e-06
128.089,0.10669230116755152,-0.08928007067174808,8.109030751579622,0.0012872965542636088,0.0015337757008145791,-2.423941977362147e-06
128.094,0.10669267756724861,-0.08928046339097978,8.10903090846305,0.001287290487554695,0.0015337747324808166,-2.420961794535897e-06
128.099,0.10669299938095761,-0.08928013341421581,8.109030740014031,0.001287297482526371,0.0015337871431284334,-2.4195704934908193e-06
128.104,0.10669337576923746,-0.08928052612312072,8.109030896825772,0.0012872914143892077,0.0015337861747330055,-2.4165926124517487e-06
128.109,0.10669369758790342,-0.08928019614137594,8.10903072840005,0.0012872984139005483,0.0015337985842677634,-2.4152035170747317e-06
128.114,0.10669407395174649,-0.0892805888399771,8.109030885249174,0.0012872923487743276,0.0015337976151127777,-2.4122278445438377e-06
128.119,0.10669439570515789,-0.0892802588391141,8.109030716810194,0.0012872993420152859,0.0015338100239773358,-2.410840884795161e-06
128.124,0.10669477208616311,-0.08928065154180784,8.109030873638249,0.0012872932770412297,0.0015338090538845192,-2.4078674022084874e-06
128.129,0.10669509388202968,-0.08928032154578222,8.109030705201619,0.001287300273926561,0.001533821462248862,-2.4064828561244815e-06
128.134,0.10669547024209353,-0.08928071424399811,8.109030862061957,0.0012872942055512638,0.0015338204913429032,-2.403511622833189e-06
128.139,0.10669579194088087,-0.08928038422235958,8.109030693657905,0.0012873011991523455,0.001533832898451694,-2.4021289929635495e-06
128.144,0.10669616828762143,-0.08928077691409396,8.109030850465869,0.0012872951304482216,0.0015338319269701949,-2.3991601025008795e-06
128.149,0.1066964900207069,-0.0892804468964839,8.109030682025084,0.001287302125642236,0.001533844333550022,-2.397779848434725e-06
128.154,0.10669686633287531,-0.08928083956996012,8.109030838882605,0.0012872960614323092,0.0015338433611119548,-2.3948130721865445e-06
128.159,0.10669718806222855,-0.08928050954609534,8.109030670439186,0.0012873030585693328,0.0015338557671430043,-2.393434931942722e-06
128.164,0.1066975643605781,-0.08928090221813917,8.10903082724031,0.0012872969870371441,0.0015338547939647191,-2.3904704131112823e-06
128.169,0.10669788605014675,-0.08928057217655593,8.109030658822915,0.0012873039848642143,0.0015338671988997194,-2.389094542493889e-06
128.174,0.10669826235591377,-0.08928096484471156,8.109030815595442,0.001287297917857842,0.0015338662250623215,-2.3861323249083834e-06
128.179,0.10669858403419263,-0.08928063480281512,8.109030647225099,0.0012873049143390083,0.0015338786292023396,-2.3847586193858264e-06
128.184,0.10669896030253244,-0.08928102745755204,8.109030804046414,0.001287298847574355,0.0015338776543372813,-2.381798547651068e-06
128.189,0.10669928199512278,-0.0892806974136621,8.109030635619709,0.0012873058408603975,0.0015338900580635795,-2.380426996427786e-06
128.194,0.10669965821555694,-0.0892810900560979,8.109030792482521,0.0012872997735517014,0.0015338890820063746,-2.3774691451107562e-06
128.199,0.10669997991015483,-0.0892807600058624,8.109030623990988,0.001287306769431592,0.0015339014854303691,-2.376099812359979e-06
128.204,0.10670035611458263,-0.08928115263993298,8.109030780856216,0.001287300703787586,0.001533900508731858,-2.3731440979234772e-06
128.209,0.10670067777979024,-0.08928082259025512,8.109030612465396,0.0012873076970301984,0.001533912910650462,-2.371776967186437e-06
128.214,0.10670105397732707,-0.08928121521641218,8.109030769276224,0.001287301629549972,0.00153391193364032,-2.3688235385253007e-06
128.219,0.1067013755915944,-0.08928088514138022,8.10903060087073,0.001287308620565051,0.0015339243345487191,-2.3674585945449235e-06
128.224,0.10670175182625855,-0.08928127777455473,8.109030757654663,0.0012873025576943726,0.0015339233569313172,-2.3645074930108504e-06
128.229,0.10670207343732989,-0.08928094768621718,8.109030589224052,0.0012873095510187386,0.0015339357572840434,-2.3631446052436967e-06
128.234,0.10670244960072003,-0.08928134030999564,8.109030746098098,0.0012873034824257075,0.001533934778324969,-2.3601956506370263e-06
128.239,0.10670277120530133,-0.08928101023196996,8.10903057766787,0.0012873104754262906,0.0015339471781824138,-2.3588349687349645e-06
128.244,0.10670314739035269,-0.08928140284125552,8.10903073449065,0.0012873044090700432,0.0015339461986175324,-2.3558881833132995e-06
128.249,0.10670346897145681,-0.08928107274615461,8.109030566020778,0.0012873114038182427,0.001533958598000773,-2.35452973779495e-06
128.254,0.1067038451383171,-0.08928146534690688,8.10903072292438,0.0012873053371478566,0.0015339576173275268,-2.351585194128255e-06
128.259,0.10670416669036208,-0.08928113523984166,8.109030554426925,0.0012873123289210019,0.0015339700159647013,-2.3502289021023783e-06
128.264,0.10670454283153144,-0.0892815278507313,8.109030711287785,0.0012873062582150086,0.001533969034818288,-2.3472865717316917e-06
128.269,0.10670486437125026,-0.08928119773010589,8.109030542873775,0.001287313256944341,0.0015339814314507983,-2.3459325558461972e-06
128.274,0.10670524054133332,-0.08928159032831823,8.10903069970854,0.001287307190956418,0.0015339804504081686,-2.3429923452955327e-06
128.279,0.10670556204305293,-0.08928126020530383,8.10903053127607,0.0012873141847735347,0.0015339928464287163,-2.3416405407085497e-06
128.284,0.10670593815835566,-0.08928165279630433,8.109030688071748,0.0012873081140560181,0.0015339918643946953,-2.3387024372708587e-06
128.289,0.10670625969355588,-0.08928132266334138,8.109030519650602,0.0012873151093781864,0.0015340042598657616,-2.337352824829391e-06
128.294,0.10670663574972775,-0.08928171523306626,8.109030676505835,0.001287309040328064,0.0015340032761088996,-2.334416985447435e-06
