Time,Force X,Force Y,Force Z,Torque X,Torque Y,Torque Z
166.187,-8.799886300707902,-5.736195562530332,3.051596609741984,0.11374261679850758,-0.5224434822945283,-0.2423024340817785
166.212,-8.665027664706567,-5.660750450134804,3.166586894727671,0.10870140774272057,-0.5098824484255874,-0.23139290820142297
166.237,-8.562520393661453,-5.620009055502389,3.2600282997203545,0.1061229965755015,-0.4992299133516746,-0.2239762176746828
166.262,-8.425758201053121,-5.5468157555283115,3.3687365526542368,0.10202151931477585,-0.4869588175353528,-0.2141500243084993
166.287,-8.226710142141915,-5.470723016385783,3.50346094508436,0.09683648430787195,-0.47089628882279333,-0.20052739820885523
166.313,-8.082988954299836,-5.463273372559419,3.604119417354545,0.09539669666422586,-0.4576254107386183,-0.19268184902240174
166.337,-7.989135497679175,-5.4381443127308104,3.679558018530142,0.09484248153663276,-0.448070918781433,-0.1884213474838325
166.362,-7.768935927698751,-5.342270340264167,3.8157931651429013,0.08928362233984666,-0.4315817539606922,-0.17419276809199832
166.387,-7.407838515243865,-5.250730965865466,4.017572811410518,0.08236686870755104,-0.4063950939065551,-0.1509088619515126
166.412,-7.096731397015674,-5.260372667346678,4.188628285561888,0.08078811263054893,-0.38329562635768716,-0.13433518295971567
166.437,-6.87723095656634,-5.282864979264921,4.314032663935202,0.08199338407301457,-0.3662006720941164,-0.12552963899027908
166.462,-6.684375482522241,-5.29742147147012,4.41904811338687,0.08258736020175732,-0.3509820893882498,-0.11870342235719616
166.487,-6.501483107576216,-5.3075342623465795,4.512853524831089,0.0830759951432891,-0.33658746143528073,-0.11242823225197478
166.512,-6.314495594325199,-5.310666597408129,4.60486840052567,0.08312593794465428,-0.3221550544182775,-0.10562899515457215
166.537,-6.112105059195375,-5.308014676296556,4.702364697769982,0.08271847518722855,-0.3069711107868345,-0.09757468321947158
166.562,-5.886483540645401,-5.301965304623871,4.810251053542897,0.08193370116234816,-0.29055071929241455,-0.08787436854496912
166.587,-5.634053804257374,-5.295946327548135,4.930699479068606,0.08094306127306103,-0.2726430701262693,-0.0764986679051523
166.612,-5.356339949629879,-5.293900514021096,5.0627317171379325,0.07998762301087184,-0.2533235913687088,-0.0637794277385749
166.637,-5.0606816112208,-5.299968927382415,5.202048491239964,0.0793532184047932,-0.23300071662831856,-0.050425526927342056
166.662,-4.760982456046483,-5.318217417988716,5.340709836866807,0.07936551660506909,-0.21249724923178778,-0.03752743739187917
166.687,-4.532421112198589,-5.383425211152642,5.438017962723778,0.08193146882823585,-0.1959041218257122,-0.030840846522575086
166.712,-4.367145185688052,-5.431363874185734,5.50107392037871,0.08493289395312327,-0.18372186413425862,-0.02844372628121465
166.737,-4.215165982469698,-5.466464805252568,5.552662543926047,0.08676211907019864,-0.17252288745763855,-0.026256163953189575
166.762,-4.0751054456191484,-5.496917880537862,5.596268234926573,0.08839610862270256,-0.16221124707392862,-0.02424170648189862
166.787,-1.4937787104232023,1.7104615693384015,5.204309439499759,-0.06861827091914145,-0.06123382488817103,-0.010906818193569253
166.812,3.7450167029312325,-22.197279436697357,-14.15402524390533,1.3547973627087724,0.5133749861549195,0.25577162306659074
166.837,-1.142252110313386,-7.2075221070451105,-16.264078274512606,0.8101392288001064,0.050912497193564145,0.15287731781637653
166.862,-0.5245376786386746,-7.674022470007941,-16.093856388669135,0.560749458098762,0.08737102485108833,0.14012683187002675
166.887,-0.4525991590263372,-7.840331947989318,-15.789456013067094,0.607742993399736,0.09225114930564857,0.14147326367280058
166.912,-0.6446016016481262,-8.019473893434611,-15.422486406137818,0.6054253359368152,0.07500193323324993,0.1373944245618317
166.937,-0.9054911342638121,-8.309002363204542,-15.0524579375077,0.618924959420832,0.050557932412736345,0.1324103070115302
166.962,-1.1686965640051419,-8.600066723154908,-14.705875644450947,0.6330415978442329,0.02512616490921102,0.12730692425016504
166.987,-1.4116310792825157,-8.88952596038728,-14.393854973365164,0.647506445191398,0.000819345537271983,0.12248502767654652
167.012,-1.6271040954904612,-9.171710878589762,-14.125809150559029,0.6628724036604783,-0.0216964922550548,0.11806856152164369
167.037,-1.8162862438708303,-9.428491772876445,-13.889309038759029,0.6766105869197251,-0.042384828297668764,0.11399819264926991
167.062,-1.9798894789739383,-9.684974799647579,-13.69226014628667,0.6913611952224977,-0.06128736764743297,0.11033252152508487
167.088,-2.122781525637275,-9.908323388656445,-13.516022169455304,0.7038996754431381,-0.07871737773604273,0.1069109564629907
167.112,-2.2449952780820173,-10.14152679876812,-13.372250705939614,0.7177805120401722,-0.09468854551181524,0.10384013614018735
167.137,-2.352691293997763,-10.334902449754546,-13.239013665980023,0.7279811970179544,-0.10959799460939706,0.10091967829169747
167.162,-2.4424498740300997,-10.55247225803922,-13.136002083818441,0.7432073445562811,-0.12331275455867935,0.09830236869324348
167.187,-2.522565105926502,-10.730397749501837,-13.037957461513935,0.7532839378644608,-0.13627179214588264,0.09577002442449882
167.212,-2.5887692557701625,-10.925417603750498,-12.961005117863204,0.7641883301874298,-0.14826636265765405,0.09350631638373351
167.237,-2.6467460287827613,-11.09335804562789,-12.89112680327977,0.7761139067333481,-0.15970045824315954,0.09128748517350847
167.262,-2.693143207794689,-11.279420759796286,-12.8388475317977,0.7878110524114742,-0.17034634018150002,0.08930041303268534
167.287,-2.734286169310837,-11.43467994420532,-12.789019274929336,0.7981906735443464,-0.18056361645655375,0.0873471733456759
167.312,-2.7653878535716627,-11.607432538867263,-12.754150799057282,0.8080444040168063,-0.19012594863983076,0.08559499918636812
167.337,-2.7922787153879485,-11.760149328266406,-12.724494162639232,0.8198729166805487,-0.19937338890729756,0.08386121247139558
167.362,-2.810079033244618,-11.92932612376958,-12.707878114745132,0.8318617339920763,-0.20806124465862041,0.08230413266512979
167.387,-2.8266353338513177,-12.070253083327076,-12.690789594151486,0.8398854532839937,-0.216535186020305,0.08076713256427194
167.412,-2.8341803532320156,-12.234805103684607,-12.6890301254109,0.8508642530592655,-0.22451916689118062,0.07938459043314788
167.437,-2.8402916384125363,-12.380691879555584,-12.69017927643594,0.8640335953592077,-0.23232801694340116,0.07801327265604818
167.462,-2.839262420265032,-12.543416709702639,-12.702600411197079,0.8742114284008127,-0.23972886625496456,0.07679207245987879
167.487,-2.83851125214041,-12.68354186485491,-12.715095498019446,0.8851275208258368,-0.24703260538023494,0.07557196778081812
167.512,-2.829619280038262,-12.846883715374986,-12.741710853769433,0.8976383734826935,-0.25393883333896755,0.07450375093097301
167.537,-2.823079107896758,-12.985241800703285,-12.766317802356543,0.9088228499865956,-0.2608387488201095,0.07341491778063805
167.565,-2.8078543041226185,-13.152942966068938,-12.80759134538254,0.919879451413041,-0.26731294538189915,0.07250614181762216
167.587,-2.7970118453178694,-13.289633240327273,-12.843443197884119,0.9312891655807118,-0.27391508206455173,0.07153215270119472
167.613,-2.775420675366104,-13.464147042867593,-12.900443021182893,0.9453812183732258,-0.27998773962857937,0.0707857892235058
167.637,-2.76215377058259,-13.59494088691299,-12.944785446848476,0.9540218812492505,-0.28640988400310097,0.06991538993412245
167.66,-2.735166735592827,-13.779182154564769,-13.018624682954316,0.9681156221144821,-0.2921032880611107,0.06934838224134501
167.687,-2.7193168584931087,-13.914644513680472,-13.075961663287744,0.9799359461719932,-0.29839542481636655,0.06856819392251295
167.712,-2.686839677529616,-14.114443987700254,-13.169716608277714,0.9987796148709804,-0.3037009096465768,0.0681827851507242
167.737,-2.6641605467472593,-14.277719329178803,-13.258670832509686,1.0122564018325007,-0.3092054219271552,0.06784905401971142
167.762,-2.667093624284012,-14.376734093874944,-13.29894276897308,1.0213417317250086,-0.3181401133296623,0.06614926028325811
167.787,-2.69707314764156,-14.469564033309325,-13.353027382402605,1.0335038235378384,-0.32552282998348264,0.0651528331011427
167.812,-2.8251784496065584,-14.155002486395258,-13.049993638038435,1.0000240620391927,-0.34823298318152773,0.05712260707165923
167.837,-2.9705684903372043,-13.83042461508676,-12.684818352285808,0.987314876853214,-0.3632487707999949,0.050740922620222326
167.856,-3.1195580238423033,-13.15832898055369,-11.872284068564857,0.9164856684102916,-0.38808984926073326,0.03759083906813718
167.887,-2.9966400067437884,-12.82046628088675,-11.185895256599721,0.8847141599357848,-0.3883191442498276,0.03155144525118008
167.905,-2.8259053553288873,-12.531517160538698,-10.483321240257101,0.8528099805712768,-0.3849631667954194,0.026303824967983086
167.937,-1.88040935800482,-12.064356086770948,-7.972921451243551,0.8005652982151695,-0.39603021558218626,0.02269205739765369
167.963,-3.1704551676471175,-11.915552320449141,-10.259718235326218,0.797403628585681,-0.37997681170780007,0.014485445491739371
167.987,-1.5000430108064886,-11.406771553865392,-6.449689787994998,0.7242989388676446,-0.38553607450511923,0.012943808819950157
168.012,-2.5434844575295186,-10.972481745932319,-8.042181844857522,0.7062739871351099,-0.3655298183313386,0.0027070329777760943
168.037,-1.2884195194971142,-10.295954642311667,-4.604924941757866,0.6184191091301662,-0.3864467854840425,-0.0020209157204887987
168.062,-0.9914126950814344,-9.971944233630039,-3.778399196619093,0.5816171087084074,-0.372013859380847,-0.005400194668730873
168.087,-0.5470229413755534,-9.912105066645422,-3.1752982073793725,0.5651690542881327,-0.3450567425930205,-0.00407278798925674
168.112,-0.18648788592747667,-9.860008400974575,-2.6977615055859445,0.5551821707448328,-0.32224208040884356,-0.0022703760923296207
168.137,0.44309502588694616,-10.436945139770838,-2.7573336884308217,0.5915343855314871,-0.279455513169399,0.008118234138306452
168.162,0.21587498735749672,-9.812806077353798,-2.2522385089440724,0.5615628836005808,-0.2947681084631645,0.0018655985052966825
168.187,-0.4325275514739394,-8.16883243224368,-0.7893189275794634,0.4292400533813156,-0.35370726725061574,-0.023619025846112512
168.212,-0.06763058058672661,-7.5743192099646315,0.44799188455163097,0.34291187581224825,-0.3448994089541814,-0.03359360005623327
168.237,0.6876628199229488,-7.712123336380852,1.088038944212756,0.3475874192558775,-0.2893471500002408,-0.026315167703336795
168.262,1.1979846192985613,-7.722933962427649,1.5667647729498142,0.33748225500646123,-0.25265359914286883,-0.021546270531183263
168.287,1.545491396307148,-7.651768784799109,1.9625038185490906,0.32782469761132704,-0.22843273356704258,-0.019077887550051253
168.312,1.7717889362058221,-7.462658137831016,2.3727741321429,0.30974805406671946,-0.21384878359891565,-0.01903780521700394
168.337,0.7688396554659508,-7.471842211902451,0.11454372733183718,0.31938470393683266,-0.17463981876675677,-0.02395173426365135
168.362,1.1572064278509084,-7.031353079828316,1.3772123639976868,0.27476721995609105,-0.1783498978099488,-0.0265239128264292
168.387,0.7090231972579086,-6.856867486398726,0.5929143323817994,0.2595554819151668,-0.16407157576273051,-0.0307529016619407
168.412,1.1426903853909398,-6.096142555672938,2.168521280232285,0.18920609129140215,-0.15617186484624698,-0.037603687045638275
168.437,1.651069802415564,-5.6171533969556044,3.6177904576047526,0.13864209132341238,-0.1520386161879557,-0.04005189490565709
168.462,2.994963149948385,-5.223368440460717,6.274767493269844,0.0789812165702961,-0.14471275440448478,-0.03719433201573437
168.487,2.410301266535731,-5.845888277717468,3.666841629802039,0.13653963838726166,-0.06641403695905244,-0.030359155569309647
168.512,2.988559165299854,-5.885944987914251,4.451626154748885,0.13335883390242909,-0.051662694875644115,-0.02420102920846074
168.537,2.6229560219089993,-6.22338492408099,3.0450042102617076,0.1660183004468872,-0.026867649319947028,-0.02049442978967139
168.562,-15.634366537136602,27.061979474568137,-12.983401771900079,-1.3523686497716272,-0.9771203831789987,-0.2040087957475467
168.587,-8.40454230231439,10.560834302240337,-8.17600811453387,-1.0367495141312009,-0.9152241596730222,-0.21527254323111916
168.612,-6.083072855609846,7.309566600899393,-5.0289406869251385,-0.7303465665886723,-0.6710997852663374,-0.15732858653111503
168.637,-2.7447309086477714,5.443480403983376,0.26570312980875654,-0.6356680173767137,-0.5543745374613951,-0.12434180905689562
168.662,-1.5091277721558014,4.055520474581967,1.4374371442382041,-0.5439501655338516,-0.4600123748643297,-0.1043087042120554
168.688,-0.573782455288389,3.0984267464005235,2.282080381330606,-0.48482681842087655,-0.38998303758858677,-0.0897681344738667
168.712,0.19760288334209414,2.3619303217470007,2.951587436232445,-0.44002620488877636,-0.3330446901402087,-0.07813117609961354
168.733,0.8690123564925071,1.7459689924339563,3.5129247725112855,-0.40263638844597505,-0.28392688244938363,-0.06819600271786974
168.762,1.469684087160029,1.2033707326579464,3.9976263110323424,-0.36947754880982303,-0.24025349110541913,-0.05939911133353187
168.782,2.0135806583525486,0.7106276924297519,4.4214951169927605,-0.338952238840038,-0.2008792764494083,-0.05147750059833174
168.812,2.5073790749578033,0.2605042798852587,4.7953189199243615,-0.3146541055220578,-0.1652627038646987,-0.04428201950722755
168.837,2.9561082907484986,-0.163767369077,5.121676375365618,-0.28748019005371445,-0.1330030817195466,-0.03775351506443082
168.862,3.3625440776795807,-0.5609287392451245,5.407447495077609,-0.2615894450378429,-0.10387805780013282,-0.031829385454860616
168.887,3.7298048289868904,-0.9328375526700927,5.657550717521771,-0.23693207681082368,-0.07763555289839877,-0.02646369886515494
168.912,4.061762842946958,-1.2849592109698305,5.875307740612154,-0.20925773025970004,-0.05398176378202027,-0.021618841802929896
168.937,4.361565146900977,-1.6018510008858404,6.07170137180644,-0.19172982690750331,-0.03266200821479704,-0.017214313232578122
168.962,4.635461792944381,-1.8970360488617457,6.247519724305014,-0.17151501355327306,-0.0132064132774207,-0.013213797212160847
168.987,4.889444870822301,-2.163066023286957,6.411309394174828,-0.1533678310761397,0.004839138318643979,-0.009529812291085543
169.012,3.7746298830278024,-2.9022972458591862,2.7955681711034486,-0.07373016025474999,0.05417280424464224,-0.008180013851752268
169.038,4.521187147739158,-2.8222989773941762,4.505265559392321,-0.09504410853241921,0.06053252456051829,-0.005179779006224846
169.062,4.224039989519731,-3.2931297079389803,3.0690565302748265,-0.0450396836810206,0.08595508273973378,-0.001969650575867415
169.087,4.643723389463807,-3.208654983582461,4.040770797495921,-0.061397433022877715,0.09830006237222193,-0.0009772424406783878
169.112,5.1119188390780685,-3.3474546720848686,4.886353751493786,-0.06020143771126968,0.10234524363820785,0.0030042317110985893
169.137,5.285314266666564,-3.503409250249717,4.990468501422884,-0.044618803788746095,0.11407431052612613,0.00534371122638206
169.162,5.443049041998588,-3.6423048233786455,5.086439683415801,-0.037530794701124845,0.12506415611091318,0.007529378069961784
169.187,5.085449661292663,-4.027421947440655,3.583216671476781,-0.0006435054946028786,0.14627309764158133,0.009700567396577658
169.212,6.558723829844644,-3.6771754384650324,7.5524955109876855,-0.05052812384638528,0.12318403324533661,0.014003373037532489
169.237,5.558871536118001,-3.9973191559597154,4.592709879644403,-0.00855754952523417,0.16279911708111358,0.011494010895265926
169.262,5.969732603808665,-4.077182667090501,5.406894052371661,-0.011602262110076327,0.1623146303109065,0.014622665314746435
169.287,6.085362870010108,-4.175786776229768,5.468420078727464,0.00018622875819426787,0.1698546557881223,0.016141699217012716
169.312,6.189742258161832,-4.260395107584039,5.522407370961531,0.003666319563066376,0.17694964148493675,0.017556020071830658
169.337,5.7944487489115675,-4.590077601437457,3.9438180138736403,0.038072172169044766,0.1950033048389005,0.018988182748602807
169.362,7.2060844160607775,-4.212421343260952,7.97065528303534,-0.016395604014938975,0.1680057765382954,0.02287312154948882
169.387,6.160998394487796,-4.469914779015909,4.900911119675789,0.02345484176017245,0.20448926564681288,0.01944508684028037
169.412,6.537767851866281,-4.514989824051931,5.701652048159292,0.01777020470015998,0.20112968573075143,0.022056532725287813
169.437,6.616167337412339,-4.578419028052143,5.737511007169168,0.027229093587784248,0.20598449401159485,0.023056317048798458
169.462,6.686072224247822,-4.629294770431163,5.765022639861986,0.028450354799665054,0.21056762304382878,0.023976368563320492
169.487,6.269997484060686,-4.923034060755483,4.124811847820875,0.061631936659838786,0.22675678069948962,0.024933504237607977
169.512,7.637919905582022,-4.534705677019949,8.22422785189798,0.0037428547033159093,0.19701017758255643,0.028624488027844952
169.537,6.560760716051987,-4.746102381018901,5.055273137008663,0.04251748564431843,0.23147343370098145,0.024497980656548873
169.561,6.9179889936465395,-4.771547736787518,5.854288806626025,0.03519787671745181,0.22625664381984578,0.026796602582221427
169.587,6.972163804907408,-4.813687084011516,5.875247769805257,0.04323002325655886,0.22937455275512084,0.02746589368281453
169.615,7.019655410256623,-4.8437044085477385,5.886088770538284,0.04305606834147365,0.23232862524682568,0.028067462545804157
169.637,6.593559016893547,-5.114054680740054,4.192511166177128,0.07582033935857528,0.24748981291265246,0.028716994705293295
169.661,7.929915079741954,-4.724606571253583,8.37537594143071,0.015191011527123734,0.21573345391857318,0.03236061642730054
169.687,6.828738638041486,-4.90065288561038,5.113032127955423,0.053554960950097,0.24891182930235958,0.02767751058872209
169.713,7.176220712992365,-4.9158365795871015,5.917987238515276,0.0452245318538255,0.242509163901418,0.029797880116408403
169.737,7.214803202648612,-4.945202142645499,5.930920609118296,0.052391679900815044,0.24451607271564876,0.030260462832320315
169.762,7.247866400668167,-4.962297467988608,5.9313597327988345,0.0513626030827168,0.24642587759266898,0.030659293074020908
169.787,6.8186405124258265,-5.2173301976580735,4.18920062871604,0.0841992990720013,0.2611264504137193,0.03111513064829982
169.812,8.131910754749573,-4.826462418503944,8.465478258500106,0.0164033629995558,0.22780025014773825,0.034815156424118546
169.837,7.011552493022488,-4.979798474726598,5.110263811375876,0.05962151576963564,0.2602108995730918,0.029656408313396145
169.862,7.356362518886091,-5.000054731368642,5.922593250924955,0.054423200521839674,0.2531020430628566,0.03168514830580669
169.887,7.384399497385206,-5.012674883611605,5.935543943596146,0.057376739852357056,0.2543586167700515,0.03202255306939898
169.912,7.408160146510284,-5.021820582534256,5.9293539420738695,0.05577007634998689,0.25559709832241667,0.03229167299599245
169.937,6.98002337505045,-5.2669936325043825,4.141084366854478,0.08902429788397569,0.27019720057516644,0.0326224288997307
169.962,8.276429451030749,-4.8887712967711545,8.512934261738188,0.024079917218958684,0.2356402007273446,0.03642076452221983
169.987,7.13882173575716,-5.012677728481926,5.06938305039374,0.06262354902162443,0.26753620364925135,0.030860619131648816
170.012,7.484692074735141,-5.0324014470323695,5.896116221855059,0.05712185806358734,0.2599456029440637,0.03285328901582487
170.037,7.506223023544149,-5.04091285581034,5.9082096781791344,0.059759590588998,0.26074618100504104,0.03311357210172169
170.064,7.523291118212736,-5.0349656644214065,5.901746611954667,0.05378071085517412,0.26150089208444344,0.03330143195928315
170.086,7.099338664026046,-5.284369775996923,4.064688406459497,0.09168612981310081,0.276290122179938,0.033550674554856066
